t_recon,spikes,recon,th
0.03277875,-0.25,1.65,0.512890625
0.0327895,-0.25,1.637109375,0.512890625
0.03280025,-0.25,1.62421875,0.512890625
0.032811,-0.25,1.5984375,0.52578125
0.102931,0.25,1.65,0.512890625
0.1036035,0.25,1.662890625,0.512890625
0.106307875,-0.25,1.65,0.512890625
0.107132125,-0.25,1.637109375,0.512890625
0.111837375,-0.25,1.62421875,0.512890625
0.11265475,-0.25,1.611328125,0.512890625
0.113544375,-0.25,1.5984375,0.512890625
0.1181075,-0.25,1.57265625,0.52578125
0.11894525,-0.25,1.559765625,0.512890625
0.119995625,-0.25,1.546875,0.512890625
0.121906,0.25,1.57265625,0.52578125
0.13149975,0.25,1.62421875,0.5515625
0.1343165,0.25,1.65,0.52578125
0.13842325,-0.25,1.62421875,0.52578125
0.140902625,0.25,1.637109375,0.512890625
0.141352875,0.25,1.65,0.512890625
0.1417865,0.25,1.662890625,0.512890625
0.14313175,0.25,1.688671875,0.52578125
0.145930875,-0.25,1.637109375,0.5515625
0.15291775,-0.25,1.611328125,0.52578125
0.157486375,-0.25,1.5984375,0.512890625
0.158207,-0.25,1.585546875,0.512890625
0.158772,-0.25,1.57265625,0.512890625
0.1617085,0.25,1.5984375,0.52578125
0.162649125,0.25,1.62421875,0.52578125
0.16516775,-0.25,1.5984375,0.52578125
0.166142125,-0.25,1.57265625,0.52578125
0.16753725,-0.25,1.546875,0.52578125
0.192131375,0.25,1.5984375,0.5515625
0.197626125,-0.25,1.57265625,0.52578125
0.198307875,-0.25,1.559765625,0.512890625
0.200899875,0.25,1.57265625,0.512890625
0.201711,0.25,1.585546875,0.512890625
0.20471625,-0.25,1.57265625,0.512890625
0.205439375,-0.25,1.559765625,0.512890625
0.20614225,-0.25,1.546875,0.512890625
0.212214375,0.25,1.57265625,0.52578125
0.212843,0.25,1.585546875,0.512890625
0.2134855,0.25,1.5984375,0.512890625
0.21718125,-0.25,1.57265625,0.52578125
0.21796,-0.25,1.559765625,0.512890625
0.21939325,0.25,1.57265625,0.512890625
0.219958375,0.25,1.585546875,0.512890625
0.220491625,0.25,1.5984375,0.512890625
0.23273275,-0.25,1.57265625,0.52578125
0.23369525,-0.25,1.559765625,0.512890625
0.234615625,-0.25,1.546875,0.512890625
0.24027275,0.25,1.57265625,0.52578125
0.241457125,-0.25,1.559765625,0.512890625
0.242377125,-0.25,1.546875,0.512890625
0.246836625,0.25,1.559765625,0.512890625
0.252548375,0.25,1.57265625,0.512890625
0.254908875,-0.25,1.559765625,0.512890625
0.255402875,-0.25,1.546875,0.512890625
0.2558335,-0.25,1.533984375,0.512890625
0.256856625,-0.25,1.508203125,0.52578125
0.260059375,0.25,1.559765625,0.5515625
0.261750625,0.25,1.585546875,0.52578125
0.264332625,-0.25,1.559765625,0.52578125
0.26530725,-0.25,1.546875,0.512890625
0.271123,0.25,1.559765625,0.512890625
0.2719925,0.25,1.57265625,0.512890625
0.273201625,0.25,1.585546875,0.512890625
0.281857875,-0.25,1.559765625,0.52578125
0.28259525,-0.25,1.546875,0.512890625
0.285565125,0.25,1.559765625,0.512890625
0.286324625,0.25,1.57265625,0.512890625
0.28729675,0.25,1.585546875,0.512890625
0.290110125,-0.25,1.559765625,0.52578125
0.292162875,-0.25,1.533984375,0.52578125
0.319027375,0.25,1.559765625,0.52578125
0.321462125,-0.25,1.546875,0.512890625
0.32207775,-0.25,1.533984375,0.512890625
0.322729125,-0.25,1.52109375,0.512890625
0.329639,0.25,1.546875,0.52578125
0.33400625,-0.25,1.533984375,0.512890625
0.3368065,0.25,1.546875,0.512890625
0.33830825,0.25,1.559765625,0.512890625
0.341247875,-0.25,1.546875,0.512890625
0.343515875,0.25,1.559765625,0.512890625
0.34863725,0.25,1.57265625,0.512890625
0.349351625,0.25,1.585546875,0.512890625
0.349924,0.25,1.5984375,0.512890625
0.3513535,0.25,1.62421875,0.52578125
0.3869,-0.25,1.57265625,0.5515625
0.3907145,-0.25,1.546875,0.52578125
0.391747125,-0.25,1.52109375,0.52578125
0.392464375,-0.25,1.4953125,0.52578125
0.394156,-0.25,1.44375,0.5515625
0.41544225,0.25,1.546875,0.603125
0.431475625,-0.25,1.4953125,0.5515625
0.435298625,0.25,1.52109375,0.52578125
0.43787475,-0.25,1.508203125,0.512890625
0.438507125,-0.25,1.4953125,0.512890625
0.439153375,-0.25,1.482421875,0.512890625
0.44859425,0.25,1.508203125,0.52578125
0.450579875,-0.25,1.4953125,0.512890625
0.451240875,-0.25,1.482421875,0.512890625
0.45190675,-0.25,1.46953125,0.512890625
0.454962625,0.25,1.4953125,0.52578125
0.458809375,-0.25,1.46953125,0.52578125
0.459965,-0.25,1.456640625,0.512890625
0.472032375,-0.25,1.44375,0.512890625
0.473393125,0.25,1.456640625,0.512890625
0.4741575,0.25,1.46953125,0.512890625
0.47532525,0.25,1.482421875,0.512890625
0.4779795,-0.25,1.456640625,0.52578125
0.481535,0.25,1.482421875,0.52578125
0.48258925,0.25,1.4953125,0.512890625
0.485721875,0.25,1.508203125,0.512890625
0.4868455,0.25,1.52109375,0.512890625
0.487821625,0.25,1.533984375,0.512890625
0.50359725,-0.25,1.508203125,0.52578125
0.5095115,-0.25,1.4953125,0.512890625
0.510166125,-0.25,1.482421875,0.512890625
0.510917875,-0.25,1.46953125,0.512890625
0.513340875,0.25,1.4953125,0.52578125
0.517530625,-0.25,1.44375,0.5515625
0.52429175,-0.25,1.41796875,0.52578125
0.525212125,-0.25,1.405078125,0.512890625
0.527753,0.25,1.41796875,0.512890625
0.5301005,0.25,1.430859375,0.512890625
0.530764125,0.25,1.44375,0.512890625
0.5315645,0.25,1.46953125,0.52578125
0.532666125,0.25,1.52109375,0.5515625
0.5349245,0.25,1.62421875,0.603125
0.53689275,0.25,1.72734375,0.603125
0.538255,0.25,1.83046875,0.603125
0.539317625,0.25,1.93359375,0.603125
0.540261875,0.25,2.03671875,0.603125
0.541143125,0.25,2.13984375,0.603125
0.541993625,0.25,2.24296875,0.603125
0.542820875,0.25,2.34609375,0.603125
0.5436255,0.25,2.44921875,0.603125
0.54440375,0.25,2.55234375,0.603125
0.545156625,0.25,2.65546875,0.603125
0.545882375,0.25,2.75859375,0.603125
0.54661175,0.25,2.86171875,0.603125
0.54735475,0.25,2.96484375,0.603125
0.548166375,0.25,3.06796875,0.603125
0.549292125,0.25,3.17109375,0.603125
0.560046375,-0.25,3.06796875,0.603125
0.56334025,-0.25,3.01640625,0.5515625
0.5644895,-0.25,2.96484375,0.5515625
0.5650455,-0.25,2.91328125,0.5515625
0.565754875,-0.25,2.81015625,0.603125
0.5662855,-0.25,2.70703125,0.603125
0.566740875,-0.25,2.60390625,0.603125
0.56715,-0.25,2.50078125,0.603125
0.567523125,-0.25,2.39765625,0.603125
0.567887125,-0.25,2.29453125,0.603125
0.568227625,-0.25,2.19140625,0.603125
0.5685645,-0.25,2.08828125,0.603125
0.568901125,-0.25,1.98515625,0.603125
0.56923325,-0.25,1.88203125,0.603125
0.569568125,-0.25,1.77890625,0.603125
0.569906375,-0.25,1.67578125,0.603125
0.570246625,-0.25,1.57265625,0.603125
0.5705955,-0.25,1.46953125,0.603125
0.570955625,-0.25,1.36640625,0.603125
0.57132325,-0.25,1.26328125,0.603125
0.571708625,-0.25,1.16015625,0.603125
0.572110875,-0.25,1.05703125,0.603125
0.572542,-0.25,0.953906249999999,0.603125
0.57299975,-0.25,0.850781249999999,0.603125
0.573500625,-0.25,0.747656249999999,0.603125
0.574057125,-0.25,0.644531249999999,0.603125
0.574691125,-0.25,0.541406249999999,0.603125
0.5754775,-0.25,0.438281249999999,0.603125
0.576554875,-0.25,0.335156249999999,0.603125
0.578831875,-0.25,0.232031249999999,0.603125
0.581995,0.25,0.335156249999999,0.603125
0.582705625,0.25,0.386718749999999,0.5515625
0.583336125,0.25,0.438281249999999,0.5515625
0.58451375,0.25,0.541406249999999,0.603125
0.585732625,0.25,0.644531249999999,0.603125
0.587448625,0.25,0.747656249999999,0.603125
0.589999875,0.25,0.850781249999999,0.603125
0.592105875,0.25,0.953906249999999,0.603125
0.603193375,0.25,1.05703125,0.603125
0.605328,0.25,1.10859375,0.5515625
0.610152125,0.25,1.16015625,0.5515625
0.6117625,0.25,1.1859375,0.52578125
0.613955875,-0.25,1.16015625,0.52578125
0.61507225,-0.25,1.134375,0.52578125
0.6166395,-0.25,1.10859375,0.52578125
0.623624375,0.25,1.16015625,0.5515625
0.63000325,0.25,1.1859375,0.52578125
0.63061275,0.25,1.198828125,0.512890625
0.631399375,0.25,1.21171875,0.512890625
0.63666975,0.25,1.2375,0.52578125
0.637385375,0.25,1.250390625,0.512890625
0.63814625,0.25,1.26328125,0.512890625
0.642486875,0.25,1.2890625,0.52578125
0.643175,0.25,1.301953125,0.512890625
0.643790375,0.25,1.31484375,0.512890625
0.64985775,0.25,1.340625,0.52578125
0.6503905,0.25,1.353515625,0.512890625
0.651032125,0.25,1.36640625,0.512890625
0.66366025,0.25,1.3921875,0.52578125
0.666194375,-0.25,1.379296875,0.512890625
0.66887625,0.25,1.3921875,0.512890625
0.66939075,0.25,1.405078125,0.512890625
0.669914,0.25,1.41796875,0.512890625
0.676586375,0.25,1.44375,0.52578125
0.680951875,0.25,1.456640625,0.512890625
0.6821835,0.25,1.46953125,0.512890625
0.684311125,-0.25,1.456640625,0.512890625
0.68842075,0.25,1.46953125,0.512890625
0.68951075,0.25,1.482421875,0.512890625
0.692855875,-0.25,1.46953125,0.512890625
0.69714125,0.25,1.482421875,0.512890625
0.69915475,0.25,1.4953125,0.512890625
0.70061425,0.25,1.508203125,0.512890625
0.7083885,0.25,1.533984375,0.52578125
0.70904925,0.25,1.546875,0.512890625
0.710745875,-0.25,1.533984375,0.512890625
0.711299375,-0.25,1.52109375,0.512890625
0.711761625,-0.25,1.508203125,0.512890625
0.712693875,-0.25,1.482421875,0.52578125
0.71922875,-0.25,1.430859375,0.5515625
0.721326375,0.25,1.456640625,0.52578125
0.722059,0.25,1.46953125,0.512890625
0.7249375,-0.25,1.456640625,0.512890625
0.72723,0.25,1.46953125,0.512890625
0.7277365,0.25,1.482421875,0.512890625
0.728200125,0.25,1.4953125,0.512890625
0.729288,0.25,1.52109375,0.52578125
0.739362875,0.25,1.57265625,0.5515625
0.741615375,0.25,1.5984375,0.52578125
0.744814375,-0.25,1.57265625,0.52578125
0.747119625,0.25,1.585546875,0.512890625
0.75024125,-0.25,1.57265625,0.512890625
0.75123925,-0.25,1.559765625,0.512890625
0.75423725,0.25,1.57265625,0.512890625
0.754779,0.25,1.585546875,0.512890625
0.755255,0.25,1.5984375,0.512890625
0.75642825,0.25,1.62421875,0.52578125
0.786571625,0.25,1.67578125,0.5515625
0.787773375,0.25,1.7015625,0.52578125
0.790940625,0.25,1.72734375,0.52578125
0.792219125,0.25,1.753125,0.52578125
0.793354,0.25,1.77890625,0.52578125
0.800583625,0.25,1.83046875,0.5515625
0.805496,0.25,1.85625,0.52578125
0.80681225,0.25,1.869140625,0.512890625
0.810219375,-0.25,1.85625,0.512890625
0.811829,0.25,1.869140625,0.512890625
0.812658625,0.25,1.88203125,0.512890625
0.813368,0.25,1.894921875,0.512890625
0.81495175,0.25,1.920703125,0.52578125
0.818892375,0.25,1.972265625,0.5515625
0.82304825,0.25,2.023828125,0.5515625
0.824624125,0.25,2.049609375,0.52578125
0.825609125,0.25,2.075390625,0.52578125
0.856765,-0.25,2.023828125,0.5515625
0.859650375,-0.25,1.998046875,0.52578125
0.86091125,-0.25,1.972265625,0.52578125
0.861825875,-0.25,1.946484375,0.52578125
0.8670745,-0.25,1.894921875,0.5515625
0.86796675,-0.25,1.869140625,0.52578125
0.869093875,-0.25,1.843359375,0.52578125
0.87220525,-0.25,1.791796875,0.5515625
0.873986875,-0.25,1.740234375,0.5515625
0.87529275,-0.25,1.688671875,0.5515625
0.87958925,-0.25,1.585546875,0.603125
0.880709625,-0.25,1.533984375,0.5515625
0.881862,-0.25,1.482421875,0.5515625
0.886680375,-0.25,1.379296875,0.603125
0.8880335,-0.25,1.327734375,0.5515625
0.889186125,-0.25,1.276171875,0.5515625
0.892354875,-0.25,1.173046875,0.603125
0.89779875,-0.25,1.069921875,0.603125
0.8998695,-0.25,1.018359375,0.5515625
0.901914875,-0.25,0.966796875000001,0.5515625
0.906244625,-0.25,0.915234375000001,0.5515625
0.90729,-0.25,0.889453125000001,0.52578125
0.90820075,-0.25,0.863671875000001,0.52578125
0.9118185,-0.25,0.812109375000001,0.5515625
0.919202875,-0.25,0.760546875000002,0.5515625
0.920477625,-0.25,0.734765625000002,0.52578125
0.931191125,0.25,0.760546875000002,0.52578125
0.931877875,0.25,0.773437500000002,0.512890625
0.93314375,0.25,0.786328125000002,0.512890625
0.942909625,0.25,0.812109375000002,0.52578125
0.943419,0.25,0.825000000000002,0.512890625
0.9443255,0.25,0.837890625000002,0.512890625
0.94669575,-0.25,0.812109375000002,0.52578125
0.952616375,0.25,0.863671875000002,0.5515625
0.956862375,0.25,0.889453125000002,0.52578125
0.95793975,0.25,0.902343750000002,0.512890625
0.960245375,0.25,0.915234375000002,0.512890625
0.96144225,0.25,0.941015625000002,0.52578125
0.96764725,0.25,0.992578125000002,0.5515625
0.968994125,0.25,1.018359375,0.52578125
0.970444875,0.25,1.044140625,0.52578125
0.981754125,0.25,1.095703125,0.5515625
0.98447875,0.25,1.121484375,0.52578125
0.986739,0.25,1.147265625,0.52578125
0.988882875,0.25,1.173046875,0.52578125
0.992474875,0.25,1.198828125,0.52578125
0.994324375,0.25,1.224609375,0.52578125
0.995754125,0.25,1.250390625,0.52578125
1.002760375,0.25,1.301953125,0.5515625
1.012867625,0.25,1.327734375,0.52578125
1.013619375,0.25,1.340625,0.512890625
1.01436675,0.25,1.353515625,0.512890625
1.017937,-0.25,1.327734375,0.52578125
1.0207465,0.25,1.340625,0.512890625
1.021429125,0.25,1.353515625,0.512890625
1.025139375,0.25,1.36640625,0.512890625
1.026681,0.25,1.379296875,0.512890625
1.027689125,0.25,1.3921875,0.512890625
1.03127225,0.25,1.41796875,0.52578125
1.032550625,0.25,1.44375,0.52578125
1.033877375,0.25,1.46953125,0.52578125
1.0385655,0.25,1.52109375,0.5515625
1.053743,0.25,1.546875,0.52578125
1.057727,0.25,1.559765625,0.512890625
1.05958825,-0.25,1.546875,0.512890625
1.060836375,-0.25,1.533984375,0.512890625
1.062584,0.25,1.546875,0.512890625
1.0633805,0.25,1.559765625,0.512890625
1.064141125,0.25,1.57265625,0.512890625
1.07598575,0.25,1.5984375,0.52578125
1.0800575,-0.25,1.585546875,0.512890625
1.0830365,0.25,1.5984375,0.512890625
1.083706,0.25,1.611328125,0.512890625
1.084475125,0.25,1.62421875,0.512890625
1.10295425,0.25,1.65,0.52578125
1.103593375,0.25,1.662890625,0.512890625
1.106305875,-0.25,1.65,0.512890625
1.107137375,-0.25,1.637109375,0.512890625
1.111839125,-0.25,1.62421875,0.512890625
1.112652,-0.25,1.611328125,0.512890625
1.11354375,-0.25,1.5984375,0.512890625
1.118097125,-0.25,1.57265625,0.52578125
1.118979125,-0.25,1.559765625,0.512890625
1.120064625,-0.25,1.546875,0.512890625
1.12190425,0.25,1.57265625,0.52578125
1.13149975,0.25,1.62421875,0.5515625
1.134321,0.25,1.65,0.52578125
1.138429625,-0.25,1.62421875,0.52578125
1.140903,0.25,1.637109375,0.512890625
1.14134475,0.25,1.65,0.512890625
1.14178725,0.25,1.662890625,0.512890625
1.1431275,0.25,1.688671875,0.52578125
1.14593775,-0.25,1.637109375,0.5515625
1.15292775,-0.25,1.611328125,0.52578125
1.157494375,-0.25,1.5984375,0.512890625
1.158226,-0.25,1.585546875,0.512890625
1.1587895,-0.25,1.57265625,0.512890625
1.161707375,0.25,1.5984375,0.52578125
1.162648625,0.25,1.62421875,0.52578125
1.16517975,-0.25,1.5984375,0.52578125
1.166121,-0.25,1.57265625,0.52578125
1.167537,-0.25,1.546875,0.52578125
1.192076625,0.25,1.5984375,0.5515625
1.197623875,-0.25,1.57265625,0.52578125
1.198307625,-0.25,1.559765625,0.512890625
1.2008995,0.25,1.57265625,0.512890625
1.201711125,0.25,1.585546875,0.512890625
1.20471625,-0.25,1.57265625,0.512890625
1.20543875,-0.25,1.559765625,0.512890625
1.206147,-0.25,1.546875,0.512890625
1.212197125,0.25,1.57265625,0.52578125
1.21284275,0.25,1.585546875,0.512890625
1.213482,0.25,1.5984375,0.512890625
1.21718775,-0.25,1.57265625,0.52578125
1.218012875,-0.25,1.559765625,0.512890625
1.219376625,0.25,1.57265625,0.512890625
1.21993925,0.25,1.585546875,0.512890625
1.22048975,0.25,1.5984375,0.512890625
1.23273325,-0.25,1.57265625,0.52578125
1.23372525,-0.25,1.559765625,0.512890625
1.23463725,-0.25,1.546875,0.512890625
1.24027275,0.25,1.57265625,0.52578125
1.24144375,-0.25,1.559765625,0.512890625
1.24239525,-0.25,1.546875,0.512890625
1.246848,0.25,1.559765625,0.512890625
1.2525505,0.25,1.57265625,0.512890625
1.254913625,-0.25,1.559765625,0.512890625
1.255405625,-0.25,1.546875,0.512890625
1.25583275,-0.25,1.533984375,0.512890625
1.25685925,-0.25,1.508203125,0.52578125
1.26004425,0.25,1.559765625,0.5515625
1.261694625,0.25,1.585546875,0.52578125
1.2643345,-0.25,1.559765625,0.52578125
1.265318625,-0.25,1.546875,0.512890625
1.271123,0.25,1.559765625,0.512890625
1.27197775,0.25,1.57265625,0.512890625
1.273190875,0.25,1.585546875,0.512890625
1.281858125,-0.25,1.559765625,0.52578125
1.28263025,-0.25,1.546875,0.512890625
1.285563125,0.25,1.559765625,0.512890625
1.28632175,0.25,1.57265625,0.512890625
1.287289,0.25,1.585546875,0.512890625
1.290131,-0.25,1.559765625,0.52578125
1.29231325,-0.25,1.533984375,0.52578125
1.318995,0.25,1.559765625,0.52578125
1.32146425,-0.25,1.546875,0.512890625
1.3220915,-0.25,1.533984375,0.512890625
1.322733,-0.25,1.52109375,0.512890625
1.329597125,0.25,1.546875,0.52578125
1.333962375,-0.25,1.533984375,0.512890625
1.3367935,0.25,1.546875,0.512890625
1.3382165,0.25,1.559765625,0.512890625
1.341261125,-0.25,1.546875,0.512890625
1.343502,0.25,1.559765625,0.512890625
1.348608625,0.25,1.57265625,0.512890625
1.349353,0.25,1.585546875,0.512890625
1.349923375,0.25,1.5984375,0.512890625
1.351352625,0.25,1.62421875,0.52578125
1.386900375,-0.25,1.57265625,0.5515625
1.390694375,-0.25,1.546875,0.52578125
1.391745875,-0.25,1.52109375,0.52578125
1.39246125,-0.25,1.4953125,0.52578125
1.39416075,-0.25,1.44375,0.5515625
1.415436125,0.25,1.546875,0.603125
1.431484375,-0.25,1.4953125,0.5515625
1.4353005,0.25,1.52109375,0.52578125
1.437873125,-0.25,1.508203125,0.512890625
1.4384965,-0.25,1.4953125,0.512890625
1.439153375,-0.25,1.482421875,0.512890625
1.44859675,0.25,1.508203125,0.52578125
1.450581375,-0.25,1.4953125,0.512890625
1.45124525,-0.25,1.482421875,0.512890625
1.451903,-0.25,1.46953125,0.512890625
1.45496225,0.25,1.4953125,0.52578125
1.458827,-0.25,1.46953125,0.52578125
1.45994825,-0.25,1.456640625,0.512890625
1.46609325,-0.25,1.44375,0.512890625
1.467912125,0.25,1.456640625,0.512890625
1.4721535,-0.25,1.44375,0.512890625
1.47339825,0.25,1.456640625,0.512890625
1.4741575,0.25,1.46953125,0.512890625
1.475325,0.25,1.482421875,0.512890625
1.4779875,-0.25,1.456640625,0.52578125
1.48156375,0.25,1.482421875,0.52578125
1.48253625,0.25,1.4953125,0.512890625
1.485778625,0.25,1.508203125,0.512890625
1.486871875,0.25,1.52109375,0.512890625
1.48782225,0.25,1.533984375,0.512890625
1.503594625,-0.25,1.508203125,0.52578125
1.509508625,-0.25,1.4953125,0.512890625
1.51014725,-0.25,1.482421875,0.512890625
1.510919125,-0.25,1.46953125,0.512890625
1.51333225,0.25,1.4953125,0.52578125
1.5175315,-0.25,1.44375,0.5515625
1.52429475,-0.25,1.41796875,0.52578125
1.52521925,-0.25,1.405078125,0.512890625
1.527735125,0.25,1.41796875,0.512890625
1.530070875,0.25,1.430859375,0.512890625
1.530772625,0.25,1.44375,0.512890625
1.53155975,0.25,1.46953125,0.52578125
1.532666875,0.25,1.52109375,0.5515625
1.534924625,0.25,1.62421875,0.603125
1.536895625,0.25,1.72734375,0.603125
1.53825175,0.25,1.83046875,0.603125
1.539317875,0.25,1.93359375,0.603125
1.5402645,0.25,2.03671875,0.603125
1.5411435,0.25,2.13984375,0.603125
1.541989125,0.25,2.24296875,0.603125
1.542818125,0.25,2.34609375,0.603125
1.5436285,0.25,2.44921875,0.603125
1.544403875,0.25,2.55234375,0.603125
1.545157,0.25,2.65546875,0.603125
1.54588575,0.25,2.75859375,0.603125
1.54660775,0.25,2.86171875,0.603125
1.547352,0.25,2.96484375,0.603125
1.54816275,0.25,3.06796875,0.603125
1.549292,0.25,3.17109375,0.603125
1.560082375,-0.25,3.06796875,0.603125
1.563328625,-0.25,3.01640625,0.5515625
1.564495,-0.25,2.96484375,0.5515625
1.56504525,-0.25,2.91328125,0.5515625
1.56575275,-0.25,2.81015625,0.603125
1.56628425,-0.25,2.70703125,0.603125
1.566739375,-0.25,2.60390625,0.603125
1.5671495,-0.25,2.50078125,0.603125
1.567523625,-0.25,2.39765625,0.603125
1.56788675,-0.25,2.29453125,0.603125
1.568225875,-0.25,2.19140625,0.603125
1.56856525,-0.25,2.08828125,0.603125
1.568900625,-0.25,1.98515625,0.603125
1.569232,-0.25,1.88203125,0.603125
1.5695685,-0.25,1.77890625,0.603125
1.569905875,-0.25,1.67578125,0.603125
1.570247,-0.25,1.57265625,0.603125
1.570594875,-0.25,1.46953125,0.603125
1.570955,-0.25,1.36640625,0.603125
1.571323625,-0.25,1.26328125,0.603125
1.5717065,-0.25,1.16015625,0.603125
1.5721115,-0.25,1.05703125,0.603125
1.572542125,-0.25,0.953906250000002,0.603125
1.572999,-0.25,0.850781250000002,0.603125
1.57350075,-0.25,0.747656250000002,0.603125
1.574055875,-0.25,0.644531250000002,0.603125
1.574692125,-0.25,0.541406250000002,0.603125
1.57547325,-0.25,0.438281250000002,0.603125
1.576554625,-0.25,0.335156250000002,0.603125
1.578836625,-0.25,0.232031250000002,0.603125
1.581995375,0.25,0.335156250000002,0.603125
1.582703375,0.25,0.386718750000002,0.5515625
1.583336375,0.25,0.438281250000002,0.5515625
1.58451275,0.25,0.541406250000002,0.603125
1.585727625,0.25,0.644531250000002,0.603125
1.587445875,0.25,0.747656250000002,0.603125
1.589999125,0.25,0.850781250000002,0.603125
1.592106,0.25,0.953906250000002,0.603125
1.603192625,0.25,1.05703125,0.603125
1.605352625,0.25,1.10859375,0.5515625
1.610130875,0.25,1.16015625,0.5515625
1.6117895,0.25,1.1859375,0.52578125
1.613945375,-0.25,1.16015625,0.52578125
1.61507275,-0.25,1.134375,0.52578125
1.61664125,-0.25,1.10859375,0.52578125
1.623638875,0.25,1.16015625,0.5515625
1.63000175,0.25,1.1859375,0.52578125
1.630606375,0.25,1.198828125,0.512890625
1.63142125,0.25,1.21171875,0.512890625
1.636673625,0.25,1.2375,0.52578125
1.637383625,0.25,1.250390625,0.512890625
1.638143125,0.25,1.26328125,0.512890625
1.64249825,0.25,1.2890625,0.52578125
1.64316125,0.25,1.301953125,0.512890625
1.643789875,0.25,1.31484375,0.512890625
1.649856875,0.25,1.340625,0.52578125
1.65039,0.25,1.353515625,0.512890625
1.651029625,0.25,1.36640625,0.512890625
1.663657625,0.25,1.3921875,0.52578125
1.666226375,-0.25,1.379296875,0.512890625
1.6688765,0.25,1.3921875,0.512890625
1.6693905,0.25,1.405078125,0.512890625
1.669935125,0.25,1.41796875,0.512890625
1.676587625,0.25,1.44375,0.52578125
1.68095325,0.25,1.456640625,0.512890625
1.682179875,0.25,1.46953125,0.512890625
1.6843305,-0.25,1.456640625,0.512890625
1.68841825,0.25,1.46953125,0.512890625
1.689501625,0.25,1.482421875,0.512890625
1.692867125,-0.25,1.46953125,0.512890625
1.697102625,0.25,1.482421875,0.512890625
1.699125875,0.25,1.4953125,0.512890625
1.7006145,0.25,1.508203125,0.512890625
1.703238,0.25,1.533984375,0.52578125
1.705016875,-0.25,1.508203125,0.52578125
1.70580275,-0.25,1.4953125,0.512890625
1.70734125,0.25,1.508203125,0.512890625
1.707873875,0.25,1.52109375,0.512890625
1.70836725,0.25,1.533984375,0.512890625
1.711745375,-0.25,1.508203125,0.52578125
1.712695875,-0.25,1.482421875,0.52578125
1.717244625,-0.25,1.456640625,0.52578125
1.718087,-0.25,1.44375,0.512890625
1.71931525,-0.25,1.430859375,0.512890625
1.721326625,0.25,1.456640625,0.52578125
1.7277385,0.25,1.482421875,0.52578125
1.7282005,0.25,1.4953125,0.512890625
1.728690125,0.25,1.508203125,0.512890625
1.730236375,0.25,1.533984375,0.52578125
1.74040475,0.25,1.585546875,0.5515625
1.751239125,-0.25,1.559765625,0.52578125
1.754237625,0.25,1.57265625,0.512890625
1.7547775,0.25,1.585546875,0.512890625
1.755255,0.25,1.5984375,0.512890625
1.756429125,0.25,1.62421875,0.52578125
1.786572,0.25,1.67578125,0.5515625
1.7877745,0.25,1.7015625,0.52578125
1.7909405,0.25,1.72734375,0.52578125
1.7922045,0.25,1.753125,0.52578125
1.793360875,0.25,1.77890625,0.52578125
1.80058425,0.25,1.83046875,0.5515625
1.805467,0.25,1.85625,0.52578125
1.806802125,0.25,1.869140625,0.512890625
1.81028675,-0.25,1.85625,0.512890625
1.811828625,0.25,1.869140625,0.512890625
1.812645625,0.25,1.88203125,0.512890625
1.8133415,0.25,1.894921875,0.512890625
1.814951625,0.25,1.920703125,0.52578125
1.818894625,0.25,1.972265625,0.5515625
1.8230385,0.25,2.023828125,0.5515625
1.824626125,0.25,2.049609375,0.52578125
1.825609375,0.25,2.075390625,0.52578125
1.850806625,-0.25,2.023828125,0.5515625
1.852986375,0.25,2.049609375,0.52578125
1.8541035,0.25,2.0625,0.512890625
1.8555525,-0.25,2.049609375,0.512890625
1.856107375,-0.25,2.03671875,0.512890625
1.856706625,-0.25,2.023828125,0.512890625
1.859626875,-0.25,1.998046875,0.52578125
1.861825125,-0.25,1.946484375,0.5515625
1.8670635,-0.25,1.894921875,0.5515625
1.867971375,-0.25,1.869140625,0.52578125
1.8690685,-0.25,1.843359375,0.52578125
1.872177375,-0.25,1.791796875,0.5515625
1.873976,-0.25,1.740234375,0.5515625
1.875290375,-0.25,1.688671875,0.5515625
1.879587875,-0.25,1.585546875,0.603125
1.880709625,-0.25,1.533984375,0.5515625
1.881861625,-0.25,1.482421875,0.5515625
1.88667975,-0.25,1.379296875,0.603125
1.8880345,-0.25,1.327734375,0.5515625
1.88918475,-0.25,1.276171875,0.5515625
1.892353375,-0.25,1.173046875,0.603125
1.897799125,-0.25,1.06992187500001,0.603125
1.899868625,-0.25,1.01835937500001,0.5515625
1.90190725,-0.25,0.966796875000005,0.5515625
1.906244125,-0.25,0.915234375000005,0.5515625
1.907289875,-0.25,0.889453125000005,0.52578125
1.9082,-0.25,0.863671875000005,0.52578125
1.91181425,-0.25,0.812109375000005,0.5515625
1.919201875,-0.25,0.760546875000005,0.5515625
1.920478125,-0.25,0.734765625000005,0.52578125
1.931193125,0.25,0.760546875000005,0.52578125
1.93187375,0.25,0.773437500000005,0.512890625
1.933149,0.25,0.786328125000005,0.512890625
1.9429095,0.25,0.812109375000005,0.52578125
1.943408,0.25,0.825000000000005,0.512890625
1.94432075,0.25,0.837890625000005,0.512890625
1.94669725,-0.25,0.812109375000005,0.52578125
1.9527435,0.25,0.863671875000005,0.5515625
1.95686225,0.25,0.889453125000005,0.52578125
1.957938625,0.25,0.902343750000005,0.512890625
1.960243625,0.25,0.915234375000005,0.512890625
1.96144375,0.25,0.941015625000005,0.52578125
1.967646,0.25,0.992578125000005,0.5515625
1.969005,0.25,1.01835937500001,0.52578125
1.970424,0.25,1.04414062500001,0.52578125
1.98174575,0.25,1.09570312500001,0.5515625
1.984479125,0.25,1.12148437500001,0.52578125
1.986771375,0.25,1.14726562500001,0.52578125
1.988891,0.25,1.17304687500001,0.52578125
1.9924665,0.25,1.19882812500001,0.52578125
1.994324125,0.25,1.22460937500001,0.52578125
1.995768,0.25,1.25039062500001,0.52578125
2.002688625,0.25,1.30195312500001,0.5515625
2.01286775,0.25,1.32773437500001,0.52578125
2.01361925,0.25,1.34062500000001,0.512890625
2.014378,0.25,1.35351562500001,0.512890625
2.017935625,-0.25,1.32773437500001,0.52578125
2.0207495,0.25,1.34062500000001,0.512890625
2.02142925,0.25,1.35351562500001,0.512890625
2.02513825,0.25,1.36640625000001,0.512890625
2.02669975,0.25,1.37929687500001,0.512890625
2.02768725,0.25,1.39218750000001,0.512890625
2.031314375,0.25,1.41796875000001,0.52578125
2.032568,0.25,1.44375000000001,0.52578125
2.033886125,0.25,1.46953125000001,0.52578125
2.03858475,0.25,1.52109375000001,0.5515625
2.0539525,0.25,1.54687500000001,0.52578125
2.057778125,0.25,1.55976562500001,0.512890625
2.059545625,-0.25,1.54687500000001,0.512890625
2.060812,-0.25,1.53398437500001,0.512890625
2.062622,0.25,1.54687500000001,0.512890625
2.063408375,0.25,1.55976562500001,0.512890625
2.064135125,0.25,1.57265625000001,0.512890625
2.0760345,0.25,1.59843750000001,0.52578125
2.0800415,-0.25,1.58554687500001,0.512890625
2.083040625,0.25,1.59843750000001,0.512890625
2.0837065,0.25,1.61132812500001,0.512890625
2.08447925,0.25,1.62421875000001,0.512890625
2.1029545,0.25,1.65000000000001,0.52578125
2.103601875,0.25,1.66289062500001,0.512890625
2.106309875,-0.25,1.65000000000001,0.512890625
2.107130125,-0.25,1.63710937500001,0.512890625
2.111836125,-0.25,1.62421875000001,0.512890625
2.112652375,-0.25,1.61132812500001,0.512890625
2.113544125,-0.25,1.59843750000001,0.512890625
2.118077125,-0.25,1.57265625000001,0.52578125
2.11894825,-0.25,1.55976562500001,0.512890625
2.120013125,-0.25,1.54687500000001,0.512890625
2.121904875,0.25,1.57265625000001,0.52578125
2.1315405,0.25,1.62421875000001,0.5515625
2.13434,0.25,1.65000000000001,0.52578125
2.138424875,-0.25,1.62421875000001,0.52578125
2.140905625,0.25,1.63710937500001,0.512890625
2.141353875,0.25,1.65000000000001,0.512890625
2.141803,0.25,1.66289062500001,0.512890625
2.143211625,0.25,1.68867187500001,0.52578125
2.145930875,-0.25,1.63710937500001,0.5515625
2.152912,-0.25,1.61132812500001,0.52578125
2.157484,-0.25,1.59843750000001,0.512890625
2.158207375,-0.25,1.58554687500001,0.512890625
2.158778,-0.25,1.57265625000001,0.512890625
2.161710625,0.25,1.59843750000001,0.52578125
2.162648625,0.25,1.62421875000001,0.52578125
2.16516125,-0.25,1.59843750000001,0.52578125
2.16613025,-0.25,1.57265625000001,0.52578125
2.167536625,-0.25,1.54687500000001,0.52578125
2.192114375,0.25,1.59843750000001,0.5515625
2.19762475,-0.25,1.57265625000001,0.52578125
2.198271125,-0.25,1.55976562500001,0.512890625
2.200899625,0.25,1.57265625000001,0.512890625
2.20171125,0.25,1.58554687500001,0.512890625
2.204716875,-0.25,1.57265625000001,0.512890625
2.20543875,-0.25,1.55976562500001,0.512890625
2.206140875,-0.25,1.54687500000001,0.512890625
2.2122135,0.25,1.57265625000001,0.52578125
2.21284275,0.25,1.58554687500001,0.512890625
2.213482375,0.25,1.59843750000001,0.512890625
2.217182625,-0.25,1.57265625000001,0.52578125
2.217998625,-0.25,1.55976562500001,0.512890625
2.219391125,0.25,1.57265625000001,0.512890625
2.219946125,0.25,1.58554687500001,0.512890625
2.22048925,0.25,1.59843750000001,0.512890625
2.2327045,-0.25,1.57265625000001,0.52578125
2.233729625,-0.25,1.55976562500001,0.512890625
2.2346505,-0.25,1.54687500000001,0.512890625
2.24024225,0.25,1.57265625000001,0.52578125
2.241484625,-0.25,1.55976562500001,0.512890625
2.242413875,-0.25,1.54687500000001,0.512890625
2.2468115,0.25,1.55976562500001,0.512890625
2.2525375,0.25,1.57265625000001,0.512890625
2.25488925,-0.25,1.55976562500001,0.512890625
2.255405625,-0.25,1.54687500000001,0.512890625
2.255848375,-0.25,1.53398437500001,0.512890625
2.256853,-0.25,1.50820312500001,0.52578125
2.260037625,0.25,1.55976562500001,0.5515625
2.261750125,0.25,1.58554687500001,0.52578125
2.26430625,-0.25,1.55976562500001,0.52578125
2.265369375,-0.25,1.54687500000001,0.512890625
2.27112325,0.25,1.55976562500001,0.512890625
2.2720145,0.25,1.57265625000001,0.512890625
2.273190625,0.25,1.58554687500001,0.512890625
2.28183225,-0.25,1.55976562500001,0.52578125
2.282603875,-0.25,1.54687500000001,0.512890625
2.285563125,0.25,1.55976562500001,0.512890625
2.28631425,0.25,1.57265625000001,0.512890625
2.2872895,0.25,1.58554687500001,0.512890625
2.290139625,-0.25,1.55976562500001,0.52578125
2.292218125,-0.25,1.53398437500001,0.52578125
2.318988875,0.25,1.55976562500001,0.52578125
2.32146325,-0.25,1.54687500000001,0.512890625
2.322089875,-0.25,1.53398437500001,0.512890625
2.322736875,-0.25,1.52109375000001,0.512890625
2.3296055,0.25,1.54687500000001,0.52578125
2.334007625,-0.25,1.53398437500001,0.512890625
2.336805,0.25,1.54687500000001,0.512890625
2.338258875,0.25,1.55976562500001,0.512890625
2.34126025,-0.25,1.54687500000001,0.512890625
2.34350625,0.25,1.55976562500001,0.512890625
2.3486375,0.25,1.57265625000001,0.512890625
2.349353125,0.25,1.58554687500001,0.512890625
2.34992375,0.25,1.59843750000001,0.512890625
2.35135375,0.25,1.62421875000001,0.52578125
2.386900625,-0.25,1.57265625000001,0.5515625
2.390715,-0.25,1.54687500000001,0.52578125
2.39174575,-0.25,1.52109375000001,0.52578125
2.392461125,-0.25,1.49531250000001,0.52578125
2.394166,-0.25,1.44375000000001,0.5515625
2.415431375,0.25,1.54687500000001,0.603125
2.4314795,-0.25,1.49531250000001,0.5515625
2.435296625,0.25,1.52109375000001,0.52578125
2.4378775,-0.25,1.50820312500001,0.512890625
2.438498875,-0.25,1.49531250000001,0.512890625
2.43915425,-0.25,1.48242187500001,0.512890625
2.44859075,0.25,1.50820312500001,0.52578125
2.45058,-0.25,1.49531250000001,0.512890625
2.45125875,-0.25,1.48242187500001,0.512890625
2.451902375,-0.25,1.46953125000001,0.512890625
2.454962625,0.25,1.49531250000001,0.52578125
2.458841875,-0.25,1.46953125000001,0.52578125
2.459898375,-0.25,1.45664062500001,0.512890625
2.4660645,-0.25,1.44375000000001,0.512890625
2.467961625,0.25,1.45664062500001,0.512890625
2.472028375,-0.25,1.44375000000001,0.512890625
2.473394125,0.25,1.45664062500001,0.512890625
2.474176375,0.25,1.46953125000001,0.512890625
2.475329875,0.25,1.48242187500001,0.512890625
2.477979625,-0.25,1.45664062500001,0.52578125
2.481562125,0.25,1.48242187500001,0.52578125
2.482589875,0.25,1.49531250000001,0.512890625
2.48577325,0.25,1.50820312500001,0.512890625
2.486877125,0.25,1.52109375000001,0.512890625
2.487825625,0.25,1.53398437500001,0.512890625
2.50359525,-0.25,1.50820312500001,0.52578125
2.509508125,-0.25,1.49531250000001,0.512890625
2.510142375,-0.25,1.48242187500001,0.512890625
2.510918375,-0.25,1.46953125000001,0.512890625
2.513374,0.25,1.49531250000001,0.52578125
2.517402875,-0.25,1.44375000000001,0.5515625
2.524237625,-0.25,1.41796875000001,0.52578125
2.525032,-0.25,1.40507812500001,0.512890625
2.528006125,0.25,1.41796875000001,0.512890625
2.53010675,0.25,1.43085937500001,0.512890625
2.530810125,0.25,1.44375000000001,0.512890625
2.531593,0.25,1.46953125000001,0.52578125
2.532680625,0.25,1.52109375000001,0.5515625
2.534936125,0.25,1.62421875000001,0.603125
2.53690775,0.25,1.72734375000001,0.603125
2.5382615,0.25,1.83046875000001,0.603125
2.539321875,0.25,1.93359375000001,0.603125
2.540269625,0.25,2.03671875000001,0.603125
2.54114725,0.25,2.13984375000001,0.603125
2.541988625,0.25,2.24296875000001,0.603125
2.54282425,0.25,2.34609375000001,0.603125
2.543651875,0.25,2.44921875000001,0.603125
2.544430125,0.25,2.55234375000001,0.603125
2.5451785,0.25,2.65546875000001,0.603125
2.545905375,0.25,2.75859375000001,0.603125
2.546632875,0.25,2.86171875000001,0.603125
2.547378125,0.25,2.96484375000001,0.603125
2.548185,0.25,3.06796875000001,0.603125
2.549346875,0.25,3.17109375000001,0.603125
2.5597275,-0.25,3.06796875000001,0.603125
2.5630995,-0.25,3.01640625000001,0.5515625
2.564416875,-0.25,2.96484375,0.5515625
2.56500075,-0.25,2.91328125,0.5515625
2.565721625,-0.25,2.81015625,0.603125
2.56626,-0.25,2.70703125,0.603125
2.56671675,-0.25,2.60390625,0.603125
2.56712975,-0.25,2.50078125000001,0.603125
2.567507125,-0.25,2.39765625000001,0.603125
2.567889625,-0.25,2.29453125000001,0.603125
2.568222625,-0.25,2.19140625000001,0.603125
2.568560625,-0.25,2.08828125000001,0.603125
2.568896625,-0.25,1.98515625000001,0.603125
2.56922875,-0.25,1.88203125000001,0.603125
2.569563,-0.25,1.77890625000001,0.603125
2.569901,-0.25,1.67578125000001,0.603125
2.570241875,-0.25,1.57265625000001,0.603125
2.57059025,-0.25,1.46953125000001,0.603125
2.570949375,-0.25,1.36640625000001,0.603125
2.571317375,-0.25,1.26328125000001,0.603125
2.57170275,-0.25,1.16015625000001,0.603125
2.572105375,-0.25,1.05703125000001,0.603125
2.57253175,-0.25,0.953906250000006,0.603125
2.57299375,-0.25,0.850781250000006,0.603125
2.573490125,-0.25,0.747656250000006,0.603125
2.574049375,-0.25,0.644531250000006,0.603125
2.5746785,-0.25,0.541406250000006,0.603125
2.57546175,-0.25,0.438281250000006,0.603125
2.576541,-0.25,0.335156250000006,0.603125
2.578729625,-0.25,0.232031250000006,0.603125
2.582011,0.25,0.335156250000006,0.603125
2.58272075,0.25,0.386718750000006,0.5515625
2.583345375,0.25,0.438281250000006,0.5515625
2.58452475,0.25,0.541406250000006,0.603125
2.585742,0.25,0.644531250000006,0.603125
2.5874785,0.25,0.747656250000006,0.603125
2.59002175,0.25,0.850781250000006,0.603125
2.59213525,0.25,0.953906250000006,0.603125
2.60323425,0.25,1.05703125000001,0.603125
2.605402125,0.25,1.10859375000001,0.5515625
2.610197625,0.25,1.16015625000001,0.5515625
2.615008875,-0.25,1.13437500000001,0.52578125
2.615604875,-0.25,1.12148437500001,0.512890625
2.61637325,-0.25,1.10859375000001,0.512890625
2.621824375,0.25,1.13437500000001,0.52578125
2.622910625,0.25,1.14726562500001,0.512890625
2.623706625,0.25,1.16015625000001,0.512890625
2.6300485,0.25,1.18593750000001,0.52578125
2.630657,0.25,1.19882812500001,0.512890625
2.631506,0.25,1.21171875000001,0.512890625
2.6367345,0.25,1.23750000000001,0.52578125
2.637435875,0.25,1.25039062500001,0.512890625
2.638214125,0.25,1.26328125000001,0.512890625
2.642553875,0.25,1.28906250000001,0.52578125
2.643225375,0.25,1.30195312500001,0.512890625
2.643854375,0.25,1.31484375000001,0.512890625
2.64988025,0.25,1.34062500000001,0.52578125
2.650414,0.25,1.35351562500001,0.512890625
2.65108575,0.25,1.36640625000001,0.512890625
2.66040075,-0.25,1.34062500000001,0.52578125
2.661720375,0.25,1.35351562500001,0.512890625
2.66236475,0.25,1.36640625000001,0.512890625
2.66298175,0.25,1.37929687500001,0.512890625
2.669429625,0.25,1.40507812500001,0.52578125
2.66995675,0.25,1.41796875000001,0.512890625
2.670627375,0.25,1.43085937500001,0.512890625
2.681031375,0.25,1.45664062500001,0.52578125
2.68227975,0.25,1.46953125000001,0.512890625
2.684154375,-0.25,1.45664062500001,0.512890625
2.688464375,0.25,1.46953125000001,0.512890625
2.6896,0.25,1.48242187500001,0.512890625
2.6922745,-0.25,1.46953125000001,0.512890625
2.69725625,0.25,1.48242187500001,0.512890625
2.6992195,0.25,1.49531250000001,0.512890625
2.70068175,0.25,1.50820312500001,0.512890625
2.70841525,0.25,1.53398437500001,0.52578125
2.709127375,0.25,1.54687500000001,0.512890625
2.710670125,-0.25,1.53398437500001,0.512890625
2.711259,-0.25,1.52109375000001,0.512890625
2.711709125,-0.25,1.50820312500001,0.512890625
2.712651,-0.25,1.48242187500001,0.52578125
2.719093375,-0.25,1.43085937500001,0.5515625
2.72135075,0.25,1.45664062500001,0.52578125
2.722085,0.25,1.46953125000001,0.512890625
2.724857125,-0.25,1.45664062500001,0.512890625
2.727270125,0.25,1.46953125000001,0.512890625
2.727764875,0.25,1.48242187500001,0.512890625
2.728235625,0.25,1.49531250000001,0.512890625
2.729346875,0.25,1.52109375000001,0.52578125
2.739414625,0.25,1.57265625000001,0.5515625
2.74169275,0.25,1.59843750000001,0.52578125
2.7447135,-0.25,1.57265625000001,0.52578125
2.74716525,0.25,1.58554687500001,0.512890625
2.750134125,-0.25,1.57265625000001,0.512890625
2.7510645,-0.25,1.55976562500001,0.512890625
2.7542665,0.25,1.57265625000001,0.512890625
2.7547975,0.25,1.58554687500001,0.512890625
2.7552745,0.25,1.59843750000001,0.512890625
2.75646925,0.25,1.62421875000001,0.52578125
2.786608375,0.25,1.67578125000001,0.5515625
2.787838,0.25,1.70156250000001,0.52578125
2.791004625,0.25,1.72734375000001,0.52578125
2.792252125,0.25,1.75312500000001,0.52578125
2.7933865,0.25,1.77890625000001,0.52578125
2.800646375,0.25,1.83046875000001,0.5515625
2.80550175,0.25,1.85625000000001,0.52578125
2.806938625,0.25,1.86914062500001,0.512890625
2.8098525,-0.25,1.85625000000001,0.512890625
2.81186925,0.25,1.86914062500001,0.512890625
2.8127115,0.25,1.88203125000001,0.512890625
2.8133955,0.25,1.89492187500001,0.512890625
2.814998125,0.25,1.92070312500001,0.52578125
2.81894525,0.25,1.97226562500001,0.5515625
2.823123625,0.25,2.02382812500001,0.5515625
2.82464525,0.25,2.04960937500001,0.52578125
2.825628625,0.25,2.07539062500001,0.52578125
2.850430875,-0.25,2.02382812500001,0.5515625
2.853021875,0.25,2.04960937500001,0.52578125
2.85421225,0.25,2.06250000000001,0.512890625
2.855438375,-0.25,2.04960937500001,0.512890625
2.856076375,-0.25,2.03671875000001,0.512890625
2.85670475,-0.25,2.02382812500001,0.512890625
2.8595985,-0.25,1.99804687500001,0.52578125
2.861804625,-0.25,1.94648437500001,0.5515625
2.86702975,-0.25,1.89492187500001,0.5515625
2.867914125,-0.25,1.86914062500001,0.52578125
2.8690125,-0.25,1.84335937500001,0.52578125
2.872097625,-0.25,1.79179687500001,0.5515625
2.873948875,-0.25,1.74023437500001,0.5515625
2.87525975,-0.25,1.68867187500001,0.5515625
2.87954875,-0.25,1.58554687500001,0.603125
2.88067225,-0.25,1.53398437500001,0.5515625
2.881820625,-0.25,1.48242187500001,0.5515625
2.88663375,-0.25,1.37929687500001,0.603125
2.8880005,-0.25,1.32773437500001,0.5515625
2.88915025,-0.25,1.27617187500001,0.5515625
2.892309375,-0.25,1.17304687500001,0.603125
2.897675125,-0.25,1.06992187500001,0.603125
2.899821125,-0.25,1.01835937500001,0.5515625
2.901804625,-0.25,0.96679687500001,0.5515625
2.906184625,-0.25,0.91523437500001,0.5515625
2.907233375,-0.25,0.88945312500001,0.52578125
2.908155375,-0.25,0.86367187500001,0.52578125
2.911477625,-0.25,0.81210937500001,0.5515625
2.91913875,-0.25,0.76054687500001,0.5515625
2.92041025,-0.25,0.73476562500001,0.52578125
2.927034125,-0.25,0.70898437500001,0.52578125
2.929233375,0.25,0.72187500000001,0.512890625
2.9300135,0.25,0.73476562500001,0.512890625
2.930653875,0.25,0.74765625000001,0.512890625
2.931923875,0.25,0.77343750000001,0.52578125
2.94345725,0.25,0.82500000000001,0.5515625
2.947671375,-0.25,0.79921875000001,0.52578125
2.94961025,0.25,0.81210937500001,0.512890625
2.9502105,0.25,0.82500000000001,0.512890625
2.950747875,0.25,0.83789062500001,0.512890625
2.95469725,0.25,0.86367187500001,0.52578125
2.956937625,0.25,0.88945312500001,0.52578125
2.960292875,0.25,0.91523437500001,0.52578125
2.961490375,0.25,0.94101562500001,0.52578125
2.9623575,0.25,0.96679687500001,0.52578125
2.9690315,0.25,1.01835937500001,0.5515625
2.970499875,0.25,1.04414062500001,0.52578125
2.9799545,0.25,1.06992187500001,0.52578125
2.981044375,0.25,1.08281250000001,0.512890625
2.981806125,0.25,1.09570312500001,0.512890625
2.98462575,0.25,1.12148437500001,0.52578125
2.98896675,0.25,1.17304687500001,0.5515625
2.99258425,0.25,1.19882812500001,0.52578125
2.994366,0.25,1.22460937500001,0.52578125
2.99584375,0.25,1.25039062500001,0.52578125
3.002851875,0.25,1.30195312500001,0.5515625
3.012929,0.25,1.32773437500001,0.52578125
3.013675875,0.25,1.34062500000001,0.512890625
3.014445875,0.25,1.35351562500001,0.512890625
3.01788025,-0.25,1.32773437500001,0.52578125
3.018923125,-0.25,1.31484375000001,0.512890625
3.020160875,0.25,1.32773437500001,0.512890625
3.02077525,0.25,1.34062500000001,0.512890625
3.02148925,0.25,1.35351562500001,0.512890625
